5.503364562988281250e+01
7.260905456542968750e+01
5.261750411987304688e+01
6.890047454833984375e+01
3.729260253906250000e+01
7.554090881347656250e+01
2.500927162170410156e+01
6.731691741943359375e+01
8.524315643310546875e+01
4.553170013427734375e+01
7.288634490966796875e+01
7.889929962158203125e+01
7.192763519287109375e+01
7.749721527099609375e+01
4.322646331787109375e+01
2.858590507507324219e+01
7.948392486572265625e+01
6.937545013427734375e+01
3.878015899658203125e+01
6.876535797119140625e+01
5.881034088134765625e+01
7.025278472900390625e+01
7.634067535400390625e+01
6.067100906372070312e+01
5.878416442871093750e+01
7.028266143798828125e+01
6.007424926757812500e+01
6.447280883789062500e+01
7.017734527587890625e+01
6.297520065307617188e+01
5.868367767333984375e+01
6.569123840332031250e+01
6.801823425292968750e+01
6.876226043701171875e+01
4.181139755249023438e+01
6.884480285644531250e+01
6.473071289062500000e+01
2.142876434326171875e+01
7.529483032226562500e+01
8.272617340087890625e+01
5.880261993408203125e+01
6.820163726806640625e+01
8.119312286376953125e+01
7.838909149169921875e+01
6.784508514404296875e+01
7.151824188232421875e+01
6.216305923461914062e+01
7.308489227294921875e+01
6.286721038818359375e+01
7.107704925537109375e+01
7.428329467773437500e+01
8.071872711181640625e+01
6.873439788818359375e+01
3.889853286743164062e+01
8.147435760498046875e+01
5.714959716796875000e+01
6.201109313964843750e+01
7.303473663330078125e+01
7.295339965820312500e+01
7.186042022705078125e+01
6.919707489013671875e+01
5.776504516601562500e+01
6.306571197509765625e+01
7.494524383544921875e+01
4.147678375244140625e+01
5.841957092285156250e+01
7.469418334960937500e+01
6.939665985107421875e+01
8.562291717529296875e+01
7.533810424804687500e+01
5.744835662841796875e+01
8.201883697509765625e+01
3.877494812011718750e+01
6.835310363769531250e+01
4.655355072021484375e+01
5.456063079833984375e+01
6.181411743164062500e+01
3.744161224365234375e+01
4.051491165161132812e+01
7.840691375732421875e+01
3.967473983764648438e+01
6.005706787109375000e+01
6.698776245117187500e+01
7.487808227539062500e+01
4.159020614624023438e+01
6.499279785156250000e+01
6.103567504882812500e+01
3.921141815185546875e+01
5.998168945312500000e+01
6.906473541259765625e+01
5.669809722900390625e+01
6.022988891601562500e+01
7.015178680419921875e+01
7.315235900878906250e+01
7.619879913330078125e+01
3.334175109863281250e+01
5.653680801391601562e+01
6.007498931884765625e+01
6.225283050537109375e+01
7.494324493408203125e+01
6.937007141113281250e+01
7.637668609619140625e+01
5.927996063232421875e+01
5.396735382080078125e+01
6.816067504882812500e+01
5.878269195556640625e+01
3.017274475097656250e+01
6.963425445556640625e+01
6.654009246826171875e+01
7.336903381347656250e+01
5.529582977294921875e+01
6.465055084228515625e+01
7.156365966796875000e+01
6.239610671997070312e+01
4.780808258056640625e+01
7.227465057373046875e+01
5.949326324462890625e+01
4.141007995605468750e+01
7.115338134765625000e+01
6.965077209472656250e+01
7.202330017089843750e+01
3.598999404907226562e+01
3.919449615478515625e+01
4.573963928222656250e+01
7.288755035400390625e+01
7.248394012451171875e+01
5.609796905517578125e+01
5.044503402709960938e+01
4.570175552368164062e+01
6.113989639282226562e+01
4.335190582275390625e+01
5.494654083251953125e+01
6.907956695556640625e+01
6.268866729736328125e+01
7.242046356201171875e+01
5.689339065551757812e+01
6.379942703247070312e+01
7.889929962158203125e+01
8.156739044189453125e+01
5.153699111938476562e+01
6.199991607666015625e+01
2.613337516784667969e+01
4.307612609863281250e+01
2.736000823974609375e+01
2.157713317871093750e+01
7.567316436767578125e+01
4.811705017089843750e+01
7.709912109375000000e+01
6.591046142578125000e+01
2.365970039367675781e+01
4.884188842773437500e+01
6.235803222656250000e+01
7.106261444091796875e+01
6.683950805664062500e+01
6.325796508789062500e+01
7.471803283691406250e+01
3.794707107543945312e+01
7.590653228759765625e+01
6.750736999511718750e+01
7.487085723876953125e+01
3.090041732788085938e+01
7.848688507080078125e+01
7.221036529541015625e+01
5.228060531616210938e+01
4.497569274902343750e+01
5.554054641723632812e+01
7.193575286865234375e+01
4.838545989990234375e+01
7.259886932373046875e+01
4.663984680175781250e+01
6.213127136230468750e+01
3.949082183837890625e+01
7.864012908935546875e+01
3.621647644042968750e+01
6.256838989257812500e+01
5.893721389770507812e+01
6.412866973876953125e+01
7.368408966064453125e+01
4.427889251708984375e+01
7.477176666259765625e+01
6.749787139892578125e+01
7.513312530517578125e+01
6.435135650634765625e+01
6.556082916259765625e+01
5.901847076416015625e+01
6.590857696533203125e+01
6.932316589355468750e+01
6.385533142089843750e+01
7.196999359130859375e+01
7.356549835205078125e+01
7.849768066406250000e+01
5.747772598266601562e+01
4.663383102416992188e+01
6.587503814697265625e+01
7.491150665283203125e+01
5.578981399536132812e+01
6.148248291015625000e+01
6.190354156494140625e+01
5.875331497192382812e+01
5.966366577148437500e+01
7.613970184326171875e+01
4.213891601562500000e+01
3.457248687744140625e+01
6.606079101562500000e+01
4.019445419311523438e+01
7.774015808105468750e+01
5.700595855712890625e+01
6.819300842285156250e+01
5.069163513183593750e+01
4.358789825439453125e+01
6.471413421630859375e+01
3.380367279052734375e+01
7.200794982910156250e+01
7.911882781982421875e+01
3.462885665893554688e+01
6.530449676513671875e+01
4.750053405761718750e+01
7.762731170654296875e+01
3.624754333496093750e+01
3.354325103759765625e+01
7.529167938232421875e+01
6.599665069580078125e+01
6.706786346435546875e+01
6.543938446044921875e+01
2.964487075805664062e+01
6.275361633300781250e+01
5.693241500854492188e+01
7.673714447021484375e+01
5.913555145263671875e+01
6.805555725097656250e+01
7.036064910888671875e+01
3.977011871337890625e+01
4.667484664916992188e+01
5.642002868652343750e+01
8.081630706787109375e+01
4.146463012695312500e+01
3.480614471435546875e+01
4.417966079711914062e+01
3.229431533813476562e+01
7.488186645507812500e+01
7.001373291015625000e+01
7.308172607421875000e+01
5.158446502685546875e+01
5.859650421142578125e+01
7.517527008056640625e+01
7.318407440185546875e+01
6.605043792724609375e+01
4.015526580810546875e+01
5.692578887939453125e+01
3.913055419921875000e+01
4.771800994873046875e+01
4.904550170898437500e+01
3.033436203002929688e+01
7.452058410644531250e+01
6.263031387329101562e+01
5.002999877929687500e+01
7.424888610839843750e+01
3.824508666992187500e+01
7.087109375000000000e+01
2.940655899047851562e+01
6.944184112548828125e+01
7.417910003662109375e+01
3.451919937133789062e+01
6.422756195068359375e+01
5.523177719116210938e+01
5.359216308593750000e+01
6.198653411865234375e+01
7.016176605224609375e+01
7.649372863769531250e+01
6.473920440673828125e+01
6.569505310058593750e+01
3.706742095947265625e+01
7.789789581298828125e+01
5.883720397949218750e+01
8.172711944580078125e+01
7.648654937744140625e+01
6.327853775024414062e+01
6.222477722167968750e+01
7.104139709472656250e+01
6.976743316650390625e+01
4.263314819335937500e+01
4.050512695312500000e+01
3.452571868896484375e+01
7.172026824951171875e+01
7.374131011962890625e+01
6.231676483154296875e+01
7.863090515136718750e+01
6.689774322509765625e+01
8.700599670410156250e+01
8.213983917236328125e+01
4.269038391113281250e+01
7.022385406494140625e+01
7.548868560791015625e+01
6.318569183349609375e+01
8.464707946777343750e+01
6.044176483154296875e+01
3.285281372070312500e+01
8.223358917236328125e+01
5.764556503295898438e+01
6.907395935058593750e+01
6.778080749511718750e+01
6.598729705810546875e+01
4.230874633789062500e+01
7.561582946777343750e+01
6.329132843017578125e+01
6.934430694580078125e+01
3.388290786743164062e+01
4.481228637695312500e+01
3.059253501892089844e+01
4.137573242187500000e+01
5.161531066894531250e+01
5.103194427490234375e+01
7.633382415771484375e+01
3.300534820556640625e+01
5.399834060668945312e+01
5.871726226806640625e+01
7.056552124023437500e+01
7.266179656982421875e+01
7.426914215087890625e+01
7.679829406738281250e+01
7.035717773437500000e+01
5.821893692016601562e+01
6.810615539550781250e+01
4.483293914794921875e+01
4.550351715087890625e+01
5.832038116455078125e+01
7.057915496826171875e+01
6.436690521240234375e+01
3.619068527221679688e+01
5.162639236450195312e+01
5.177892303466796875e+01
4.686371231079101562e+01
5.894184494018554688e+01
6.433953857421875000e+01
7.009084320068359375e+01
6.421813964843750000e+01
5.633233261108398438e+01
7.064276885986328125e+01
5.357302856445312500e+01
4.387860107421875000e+01
7.827220153808593750e+01
3.191532135009765625e+01
6.828345489501953125e+01
5.050130844116210938e+01
7.041840362548828125e+01
6.141955184936523438e+01
7.554150390625000000e+01
5.051599502563476562e+01
8.129505920410156250e+01
3.020554542541503906e+01
4.163567352294921875e+01
6.016115570068359375e+01
4.642232894897460938e+01
4.571352767944335938e+01
6.135614013671875000e+01
5.180353546142578125e+01
7.524093627929687500e+01
2.291879653930664062e+01
5.820511627197265625e+01
4.941577911376953125e+01
3.506926345825195312e+01
6.832613372802734375e+01
7.676473236083984375e+01
6.698910522460937500e+01
7.346764373779296875e+01
2.902337837219238281e+01
4.540634918212890625e+01
7.103602600097656250e+01
7.376964569091796875e+01
6.942141723632812500e+01
7.579062652587890625e+01
4.192980957031250000e+01
4.749494934082031250e+01
6.659934234619140625e+01
6.595951080322265625e+01
6.713021087646484375e+01
5.550160980224609375e+01
6.759320831298828125e+01
7.275026702880859375e+01
7.073142242431640625e+01
6.385288238525390625e+01
6.837575531005859375e+01
4.684568023681640625e+01
6.264900207519531250e+01
7.255947875976562500e+01
5.770154953002929688e+01
6.201949310302734375e+01
7.031688690185546875e+01
5.967252731323242188e+01
7.513367462158203125e+01
4.952748107910156250e+01
7.030329132080078125e+01
7.118849945068359375e+01
7.596791839599609375e+01
6.948601531982421875e+01
5.614038085937500000e+01
7.072772216796875000e+01
4.498339843750000000e+01
7.131165313720703125e+01
5.745835494995117188e+01
6.003561782836914062e+01
7.681201934814453125e+01
7.028768157958984375e+01
7.208784484863281250e+01
6.410173034667968750e+01
6.533843994140625000e+01
5.806571197509765625e+01
8.130544281005859375e+01
6.917866516113281250e+01
6.668404388427734375e+01
7.544333648681640625e+01
6.471776580810546875e+01
4.777918243408203125e+01
5.184320068359375000e+01
7.708420562744140625e+01
5.144932556152343750e+01
7.120608520507812500e+01
7.151723480224609375e+01
7.725055694580078125e+01
8.050646972656250000e+01
8.134778594970703125e+01
5.806303787231445312e+01
6.578801727294921875e+01
4.321701812744140625e+01
7.358118438720703125e+01
3.821821975708007812e+01
6.904669952392578125e+01
6.736166381835937500e+01
3.683884429931640625e+01
6.409657287597656250e+01
7.932669067382812500e+01
6.173339843750000000e+01
6.562885284423828125e+01
7.661635589599609375e+01
4.828923797607421875e+01
6.450262451171875000e+01
3.174891662597656250e+01
7.509540557861328125e+01
6.507608795166015625e+01
6.716663360595703125e+01
7.437429809570312500e+01
5.680822372436523438e+01
8.122147369384765625e+01
7.031994628906250000e+01
7.357508850097656250e+01
7.240583801269531250e+01
6.276066589355468750e+01
6.428936004638671875e+01
4.169397735595703125e+01
5.565264892578125000e+01
5.141654205322265625e+01
7.799002075195312500e+01
6.247891998291015625e+01
7.209952545166015625e+01
7.470073699951171875e+01
6.631468963623046875e+01
7.596417999267578125e+01
6.813440704345703125e+01
7.610684967041015625e+01
5.781990814208984375e+01
2.783742904663085938e+01
6.857968902587890625e+01
7.934416961669921875e+01
7.769029235839843750e+01
7.173126983642578125e+01
6.124116516113281250e+01
6.297470855712890625e+01
7.464463806152343750e+01
5.169890975952148438e+01
5.182848358154296875e+01
7.165268707275390625e+01
7.124527740478515625e+01
8.640721893310546875e+01
7.406782531738281250e+01
4.960685729980468750e+01
6.564105224609375000e+01
5.991687393188476562e+01
4.956349945068359375e+01
6.621340942382812500e+01
7.561155700683593750e+01
8.344472503662109375e+01
6.490473175048828125e+01
7.521457672119140625e+01
3.881117248535156250e+01
8.304658508300781250e+01
5.655885314941406250e+01
3.546001434326171875e+01
2.903870773315429688e+01
7.016864776611328125e+01
6.357631301879882812e+01
7.368462371826171875e+01
4.378414535522460938e+01
6.807906341552734375e+01
7.071102142333984375e+01
6.097653961181640625e+01
7.532404327392578125e+01
3.324424743652343750e+01
7.812976837158203125e+01
4.427519226074218750e+01
7.358367156982421875e+01
5.444870758056640625e+01
3.321138000488281250e+01
5.913165283203125000e+01
2.648815917968750000e+01
2.321770668029785156e+01
7.457283782958984375e+01
6.911582183837890625e+01
4.007778549194335938e+01
7.536660003662109375e+01
6.142630386352539062e+01
2.925787734985351562e+01
5.692284774780273438e+01
4.351919937133789062e+01
5.448480224609375000e+01
5.901868438720703125e+01
4.112722396850585938e+01
6.587599945068359375e+01
7.212181854248046875e+01
8.386885833740234375e+01
6.825344085693359375e+01
6.715156555175781250e+01
7.537837982177734375e+01
6.451896667480468750e+01
5.469029617309570312e+01
8.266359710693359375e+01
6.765598297119140625e+01
6.425370788574218750e+01
7.512812805175781250e+01
8.458371734619140625e+01
6.793732452392578125e+01
2.915951728820800781e+01
7.081069183349609375e+01
6.173948287963867188e+01
4.758443069458007812e+01
6.199991607666015625e+01
7.226982116699218750e+01
6.038857650756835938e+01
5.663028335571289062e+01
3.861339950561523438e+01
7.557554626464843750e+01
7.186242675781250000e+01
5.927809524536132812e+01
6.816291046142578125e+01
5.393393707275390625e+01
6.735027313232421875e+01
6.362670516967773438e+01
5.402391052246093750e+01
3.424886322021484375e+01
5.725269317626953125e+01
4.482481002807617188e+01
2.065332221984863281e+01
5.582880401611328125e+01
5.931377410888671875e+01
6.420458984375000000e+01
6.439826202392578125e+01
6.576199340820312500e+01
2.336498260498046875e+01
3.427079772949218750e+01
6.128297805786132812e+01
6.341333389282226562e+01
3.919665145874023438e+01
6.132065963745117188e+01
5.048007965087890625e+01
5.713972091674804688e+01
6.979417419433593750e+01
5.037847137451171875e+01
7.714926910400390625e+01
7.111106872558593750e+01
4.423564910888671875e+01
4.787702178955078125e+01
3.657788085937500000e+01
5.808964157104492188e+01
6.003280639648437500e+01
6.976486968994140625e+01
6.088339233398437500e+01
4.909446334838867188e+01
7.671126556396484375e+01
5.838512802124023438e+01
5.242641830444335938e+01
5.407961273193359375e+01
8.908589172363281250e+01
6.577574920654296875e+01
7.361240386962890625e+01
8.178423309326171875e+01
7.268870544433593750e+01
8.676050567626953125e+01
7.105494689941406250e+01
4.219467163085937500e+01
3.176375770568847656e+01
8.071704864501953125e+01
4.183949661254882812e+01
6.762379455566406250e+01
4.077697372436523438e+01
7.046556854248046875e+01
6.444876098632812500e+01
6.786584472656250000e+01
6.913964080810546875e+01
6.803941345214843750e+01
7.426815032958984375e+01
5.605661010742187500e+01
7.215400695800781250e+01
5.955427932739257812e+01
7.439452362060546875e+01
7.334392547607421875e+01
6.601768493652343750e+01
6.900528717041015625e+01
7.119748687744140625e+01
7.374713897705078125e+01
6.158283996582031250e+01
6.264451980590820312e+01
3.502151870727539062e+01
5.640620422363281250e+01
5.819406509399414062e+01
3.769219970703125000e+01
6.690747833251953125e+01
7.813674163818359375e+01
4.411213302612304688e+01
6.253070831298828125e+01
6.513000488281250000e+01
5.440184783935546875e+01
3.124564170837402344e+01
6.391467285156250000e+01
5.616478729248046875e+01
7.377385711669921875e+01
3.814110565185546875e+01
7.319281005859375000e+01
6.012711715698242188e+01
6.095585632324218750e+01
7.309967803955078125e+01
7.589345550537109375e+01
6.198653411865234375e+01
5.951442718505859375e+01
6.600889587402343750e+01
2.813477325439453125e+01
6.600944519042968750e+01
8.339358520507812500e+01
6.533543395996093750e+01
6.784301757812500000e+01
7.875514984130859375e+01
7.526580810546875000e+01
5.145287322998046875e+01
7.146945953369140625e+01
3.920943832397460938e+01
4.923246765136718750e+01
7.427025604248046875e+01
5.925934219360351562e+01
5.934835433959960938e+01
5.990514373779296875e+01
7.349520874023437500e+01
7.016519927978515625e+01
4.567311859130859375e+01
3.167090988159179688e+01
4.255470275878906250e+01
5.975205993652343750e+01
5.741249084472656250e+01
6.795514678955078125e+01
6.883275604248046875e+01
7.530684661865234375e+01
4.064585876464843750e+01
4.594571304321289062e+01
5.689690399169921875e+01
4.600668334960937500e+01
3.614551162719726562e+01
5.939481353759765625e+01
6.231191253662109375e+01
6.708376312255859375e+01
8.013885498046875000e+01
3.120013046264648438e+01
6.892065429687500000e+01
7.051338958740234375e+01
5.578947830200195312e+01
6.232202529907226562e+01
4.570895385742187500e+01
7.068663787841796875e+01
7.433177947998046875e+01
2.836954307556152344e+01
3.279653549194335938e+01
7.221869659423828125e+01
7.274883270263671875e+01
3.701233673095703125e+01
7.732350921630859375e+01
2.973398971557617188e+01
6.891716003417968750e+01
3.959257507324218750e+01
6.372315216064453125e+01
7.820171356201171875e+01
8.867784118652343750e+01
6.619346618652343750e+01
8.484120941162109375e+01
7.498974609375000000e+01
2.926348114013671875e+01
7.060472106933593750e+01
5.645878601074218750e+01
7.300370025634765625e+01
2.734567642211914062e+01
4.273917770385742188e+01
6.375616455078125000e+01
4.869101715087890625e+01
6.768859863281250000e+01
7.670768737792968750e+01
7.240941619873046875e+01
8.200478363037109375e+01
6.889594268798828125e+01
6.023300552368164062e+01
3.500244140625000000e+01
6.258982467651367188e+01
7.471849060058593750e+01
6.969306945800781250e+01
8.165775299072265625e+01
7.624690246582031250e+01
7.343660736083984375e+01
6.110604476928710938e+01
5.514251708984375000e+01
6.853273010253906250e+01
6.409690856933593750e+01
5.336370468139648438e+01
7.396429443359375000e+01
7.501538848876953125e+01
7.461832427978515625e+01
4.644573974609375000e+01
7.359725952148437500e+01
4.240578842163085938e+01
5.624316024780273438e+01
6.407525634765625000e+01
8.729828643798828125e+01
5.543139648437500000e+01
8.394937133789062500e+01
6.922620391845703125e+01
2.789491271972656250e+01
7.398326873779296875e+01
5.765343856811523438e+01
4.639459228515625000e+01
3.823088836669921875e+01
5.300241088867187500e+01
6.022237014770507812e+01
8.452694702148437500e+01
5.438234710693359375e+01
8.542681121826171875e+01
5.758350753784179688e+01
7.237211608886718750e+01
5.429605102539062500e+01
6.662660980224609375e+01
5.532608032226562500e+01
3.950518417358398438e+01
5.765549087524414062e+01
6.817877960205078125e+01
5.034675979614257812e+01
7.663177490234375000e+01
3.639020156860351562e+01
3.319160842895507812e+01
6.346612548828125000e+01
7.480990600585937500e+01
5.005020904541015625e+01
2.951343727111816406e+01
6.894445037841796875e+01
2.933339881896972656e+01
5.733673477172851562e+01
6.732588958740234375e+01
6.326102447509765625e+01
5.078942871093750000e+01
3.256295394897460938e+01
6.571403503417968750e+01
8.050666046142578125e+01
3.478593444824218750e+01
6.842487335205078125e+01
5.519181060791015625e+01
7.107750701904296875e+01
7.532340240478515625e+01
6.425633239746093750e+01
6.857416534423828125e+01
5.498246002197265625e+01
6.685173797607421875e+01
6.083367538452148438e+01
7.535579681396484375e+01
6.042035675048828125e+01
4.653848266601562500e+01
6.908106994628906250e+01
7.019036865234375000e+01
7.969785308837890625e+01
7.604207611083984375e+01
7.544365692138671875e+01
7.312081146240234375e+01
8.236963653564453125e+01
7.432015991210937500e+01
7.809227752685546875e+01
7.177968597412109375e+01
7.675051116943359375e+01
7.564046478271484375e+01
2.730140304565429688e+01
6.505695343017578125e+01
5.249981689453125000e+01
6.102746963500976562e+01
6.751932525634765625e+01
5.876966476440429688e+01
6.158283996582031250e+01
6.028296661376953125e+01
5.422871398925781250e+01
5.358831787109375000e+01
7.722963714599609375e+01
6.649954986572265625e+01
6.073791503906250000e+01
6.976993560791015625e+01
7.535579681396484375e+01
6.686927795410156250e+01
6.809024810791015625e+01
2.456052017211914062e+01
8.215953826904296875e+01
7.630091094970703125e+01
3.217868423461914062e+01
6.435263824462890625e+01
4.074707794189453125e+01
7.128334808349609375e+01
5.460769271850585938e+01
5.109355163574218750e+01
4.784659957885742188e+01
7.514524841308593750e+01
4.406457901000976562e+01
3.750277328491210938e+01
6.094479370117187500e+01
6.353156280517578125e+01
6.199761581420898438e+01
4.389925384521484375e+01
5.625707626342773438e+01
4.967096328735351562e+01
6.906740570068359375e+01
6.855744934082031250e+01
7.135594940185546875e+01
7.486864471435546875e+01
7.322706604003906250e+01
6.773636627197265625e+01
4.409984588623046875e+01
7.161107635498046875e+01
4.178032684326171875e+01
6.062892532348632812e+01
6.789337158203125000e+01
7.373789215087890625e+01
3.524456787109375000e+01
3.713294601440429688e+01
7.749260711669921875e+01
5.868023300170898438e+01
2.710764694213867188e+01
7.242174530029296875e+01
6.893120574951171875e+01
8.572347259521484375e+01
5.390914535522460938e+01
2.533464050292968750e+01
5.556740188598632812e+01
2.714712905883789062e+01
7.472873687744140625e+01
5.848179626464843750e+01
7.140060424804687500e+01
6.268974304199218750e+01
3.732000732421875000e+01
5.929017639160156250e+01
6.286947631835937500e+01
6.178784561157226562e+01
5.836215209960937500e+01
6.283204269409179688e+01
4.148260498046875000e+01
5.110051727294921875e+01
7.767342376708984375e+01
7.100353240966796875e+01
6.630852508544921875e+01
6.844363403320312500e+01
5.734913253784179688e+01
5.298659515380859375e+01
8.097522735595703125e+01
7.676091003417968750e+01
6.912926483154296875e+01
8.700599670410156250e+01
5.217430496215820312e+01
6.527706909179687500e+01
3.579462432861328125e+01
7.416345214843750000e+01
3.492574310302734375e+01
2.888879776000976562e+01
7.890161132812500000e+01
4.343211364746093750e+01
5.075828933715820312e+01
5.219109344482421875e+01
7.068578338623046875e+01
4.546951675415039062e+01
6.908567047119140625e+01
6.559960174560546875e+01
6.983866119384765625e+01
5.678434371948242188e+01
7.137622833251953125e+01
6.718226623535156250e+01
4.041710662841796875e+01
6.080110168457031250e+01
7.472071838378906250e+01
7.276524353027343750e+01
7.488359832763671875e+01
3.485702896118164062e+01
7.576067352294921875e+01
7.598243713378906250e+01
6.528325653076171875e+01
3.152482604980468750e+01
7.204396820068359375e+01
6.564082336425781250e+01
5.120902633666992188e+01
4.557252502441406250e+01
3.629623794555664062e+01
4.414174270629882812e+01
7.135214233398437500e+01
5.073607254028320312e+01
4.649169540405273438e+01
4.753926467895507812e+01
5.253266525268554688e+01
6.575317382812500000e+01
4.795738220214843750e+01
3.914717864990234375e+01
5.671687316894531250e+01
7.556552124023437500e+01
6.188777542114257812e+01
5.988538360595703125e+01
5.889208221435546875e+01
6.735578155517578125e+01
3.637787246704101562e+01
8.932021331787109375e+01
6.091521072387695312e+01
6.103523254394531250e+01
8.028325653076171875e+01
4.934927368164062500e+01
4.007513046264648438e+01
5.705787277221679688e+01
4.578003311157226562e+01
8.027309417724609375e+01
4.928647232055664062e+01
7.176770019531250000e+01
7.570075225830078125e+01
2.876353645324707031e+01
6.575061035156250000e+01
6.671548461914062500e+01
6.838469696044921875e+01
6.464116668701171875e+01
7.709515380859375000e+01
6.101126480102539062e+01
6.299035644531250000e+01
8.119719696044921875e+01
5.917668914794921875e+01
6.932111358642578125e+01
6.786584472656250000e+01
5.081446456909179688e+01
3.882733917236328125e+01
6.979605865478515625e+01
7.045015716552734375e+01
3.872372436523437500e+01
8.261225128173828125e+01
3.381879806518554688e+01
4.317056274414062500e+01
7.273564147949218750e+01
4.037649154663085938e+01
1.855131721496582031e+01
4.978303527832031250e+01
4.515084075927734375e+01
5.061465454101562500e+01
7.703009033203125000e+01
6.961064147949218750e+01
6.062892532348632812e+01
6.245756912231445312e+01
5.350497436523437500e+01
6.960271453857421875e+01
6.869953918457031250e+01
5.970402526855468750e+01
6.126034545898437500e+01
4.399004364013671875e+01
2.924406433105468750e+01
7.356975555419921875e+01
2.045039749145507812e+01
3.607033538818359375e+01
5.249981689453125000e+01
5.068330001831054688e+01
8.219458007812500000e+01
5.973650360107421875e+01
3.042542648315429688e+01
7.746097564697265625e+01
6.488149261474609375e+01
3.062322616577148438e+01
6.391675186157226562e+01
6.598336791992187500e+01
6.059737777709960938e+01
6.308291625976562500e+01
7.593698883056640625e+01
4.539173126220703125e+01
5.453643798828125000e+01
6.159432220458984375e+01
3.877616119384765625e+01
5.485602951049804688e+01
3.168996429443359375e+01
4.367613220214843750e+01
4.107704162597656250e+01
6.679182434082031250e+01
6.930797576904296875e+01
7.221436309814453125e+01
2.443162727355957031e+01
7.249397277832031250e+01
5.183625411987304688e+01
6.647583770751953125e+01
5.137981414794921875e+01
7.228665924072265625e+01
6.549967193603515625e+01
6.782023620605468750e+01
5.453901290893554688e+01
6.293023300170898438e+01
6.684671783447265625e+01
7.478731536865234375e+01
7.792173004150390625e+01
3.144639968872070312e+01
6.027210235595703125e+01
4.311873245239257812e+01
6.515711975097656250e+01
6.211188507080078125e+01
7.061518859863281250e+01
5.821893692016601562e+01
6.625231933593750000e+01
7.649649810791015625e+01
6.465604400634765625e+01
6.978910064697265625e+01
6.563062286376953125e+01
7.185917663574218750e+01
6.183401870727539062e+01
6.308941268920898438e+01
5.848951339721679688e+01
8.334841918945312500e+01
4.160921859741210938e+01
6.056872558593750000e+01
7.486215972900390625e+01
6.607816314697265625e+01
6.194075012207031250e+01
7.557554626464843750e+01
7.640113067626953125e+01
3.488073730468750000e+01
7.210459136962890625e+01
2.061921310424804688e+01
6.484177398681640625e+01
2.816071319580078125e+01
5.379844665527343750e+01
7.436948394775390625e+01
5.003541564941406250e+01
4.076790618896484375e+01
3.921301269531250000e+01
7.632254028320312500e+01
5.352317047119140625e+01
6.855495452880859375e+01
3.820488739013671875e+01
5.755371475219726562e+01
3.623365402221679688e+01
6.237239837646484375e+01
7.119139862060546875e+01
5.556678390502929688e+01
7.124388885498046875e+01
6.147924041748046875e+01
7.277387237548828125e+01
4.642934799194335938e+01
4.568420028686523438e+01
4.339409255981445312e+01
3.302560424804687500e+01
4.546839523315429688e+01
2.961199951171875000e+01
6.728685760498046875e+01
5.601780319213867188e+01
6.490473175048828125e+01
8.002528381347656250e+01
3.659764099121093750e+01
3.207229614257812500e+01
6.286947631835937500e+01
7.128404235839843750e+01
6.129760360717773438e+01
6.510782623291015625e+01
7.157910919189453125e+01
7.765152740478515625e+01
6.438553619384765625e+01
6.202256011962890625e+01
5.284489822387695312e+01
6.516304779052734375e+01
4.868126678466796875e+01
4.637615203857421875e+01
6.571842193603515625e+01
7.168526458740234375e+01
6.989032745361328125e+01
6.761164093017578125e+01
6.420178222656250000e+01
7.261113739013671875e+01
6.975392150878906250e+01
5.452355194091796875e+01
5.692065811157226562e+01
4.803949737548828125e+01
8.088379669189453125e+01
6.496927642822265625e+01
7.627072906494140625e+01
3.342232513427734375e+01
5.863399887084960938e+01
3.278254699707031250e+01
4.756009674072265625e+01
8.212495422363281250e+01
5.883777999877929688e+01
4.765635299682617188e+01
5.263607788085937500e+01
6.339730834960937500e+01
2.531281280517578125e+01
5.877279281616210938e+01
3.581231307983398438e+01
7.284507751464843750e+01
6.630615234375000000e+01
6.808465576171875000e+01
6.885874176025390625e+01
3.044107055664062500e+01
6.373765563964843750e+01
5.667255020141601562e+01
4.276605987548828125e+01
3.377570724487304688e+01
6.765093231201171875e+01
8.029077911376953125e+01
7.016793823242187500e+01
7.777835845947265625e+01
7.294983673095703125e+01
7.072982025146484375e+01
6.111369323730468750e+01
3.610380554199218750e+01
6.537644195556640625e+01
4.838591766357421875e+01
4.610152435302734375e+01
5.276092529296875000e+01
6.769620513916015625e+01
3.916829681396484375e+01
3.530477905273437500e+01
7.374949645996093750e+01
7.066855621337890625e+01
6.903369903564453125e+01
6.612378692626953125e+01
7.206071472167968750e+01
6.738115692138671875e+01
2.896159934997558594e+01
5.614260864257812500e+01
3.312721252441406250e+01
4.292977142333984375e+01
5.541823959350585938e+01
6.097610473632812500e+01
4.001065826416015625e+01
4.754317474365234375e+01
6.688324737548828125e+01
4.085079956054687500e+01
6.302312850952148438e+01
2.950028228759765625e+01
6.475458526611328125e+01
6.906473541259765625e+01
4.794574737548828125e+01
6.116043472290039062e+01
6.279032897949218750e+01
3.159257698059082031e+01
6.913072967529296875e+01
5.761295318603515625e+01
7.330028533935546875e+01
2.792261505126953125e+01
7.352119445800781250e+01
3.680913543701171875e+01
6.569991302490234375e+01
6.909854125976562500e+01
7.866425323486328125e+01
5.937882232666015625e+01
7.418270111083984375e+01
4.747527694702148438e+01
4.768960571289062500e+01
3.645212554931640625e+01
5.429891204833984375e+01
7.524791717529296875e+01
6.539705657958984375e+01
7.163970184326171875e+01
7.337436676025390625e+01
6.275930023193359375e+01
5.838281250000000000e+01
8.099620819091796875e+01
7.371829223632812500e+01
6.708405303955078125e+01
7.180104827880859375e+01
6.468849182128906250e+01
5.213848114013671875e+01
7.725661468505859375e+01
6.012009811401367188e+01
3.542367553710937500e+01
7.086532592773437500e+01
7.093154144287109375e+01
7.774819946289062500e+01
6.918154144287109375e+01
2.246042442321777344e+01
5.204013061523437500e+01
7.517744445800781250e+01
4.656381607055664062e+01
5.041147613525390625e+01
6.544918823242187500e+01
4.319800567626953125e+01
3.606090545654296875e+01
4.563438415527343750e+01
5.764006042480468750e+01
6.712313079833984375e+01
5.885069274902343750e+01
2.716872787475585938e+01
7.006307220458984375e+01
6.765746307373046875e+01
2.707635307312011719e+01
6.817052459716796875e+01
5.586727142333984375e+01
7.672503662109375000e+01
7.150019836425781250e+01
4.239918518066406250e+01
7.481323242187500000e+01
8.945244598388671875e+01
7.421787261962890625e+01
7.512617492675781250e+01
5.406413269042968750e+01
5.406607437133789062e+01
7.233574676513671875e+01
3.330828857421875000e+01
5.754422760009765625e+01
6.992584991455078125e+01
3.636636352539062500e+01
2.844363021850585938e+01
7.151018524169921875e+01
4.121291351318359375e+01
7.240941619873046875e+01
7.623818206787109375e+01
7.755532073974609375e+01
7.633320617675781250e+01
5.113394927978515625e+01
4.919478225708007812e+01
4.026383972167968750e+01
8.117477416992187500e+01
6.765307617187500000e+01
3.578421783447265625e+01
6.320637512207031250e+01
5.096045684814453125e+01
6.741045379638671875e+01
7.536386871337890625e+01
7.503379058837890625e+01
6.593998718261718750e+01
4.053744506835937500e+01
3.342848587036132812e+01
6.631705474853515625e+01
7.120688629150390625e+01
5.962525177001953125e+01
6.772589111328125000e+01
4.660614013671875000e+01
6.364329910278320312e+01
6.250804138183593750e+01
3.907155227661132812e+01
4.664061737060546875e+01
4.937966918945312500e+01
7.148294830322265625e+01
5.723456573486328125e+01
7.001532745361328125e+01
5.854664993286132812e+01
5.941560745239257812e+01
6.738385009765625000e+01
6.749245452880859375e+01
5.421432113647460938e+01
7.317918395996093750e+01
7.668729400634765625e+01
7.484223937988281250e+01
6.197488021850585938e+01
7.592604064941406250e+01
6.397541046142578125e+01
6.142274475097656250e+01
3.783423614501953125e+01
7.018928527832031250e+01
6.317206573486328125e+01
5.961583328247070312e+01
7.283100128173828125e+01
7.403556823730468750e+01
3.530795288085937500e+01
4.170195770263671875e+01
7.036844635009765625e+01
5.522346496582031250e+01
6.958582305908203125e+01
5.354821014404296875e+01
7.777056121826171875e+01
6.749972534179687500e+01
3.685754394531250000e+01
7.162017822265625000e+01
2.621026229858398438e+01
5.700861358642578125e+01
7.885362243652343750e+01
5.630438232421875000e+01
3.327685165405273438e+01
7.659010314941406250e+01
5.569435882568359375e+01
6.918614959716796875e+01
8.069779968261718750e+01
5.682917404174804688e+01
6.696811676025390625e+01
7.014475250244140625e+01
6.808752441406250000e+01
6.901330566406250000e+01
6.650855255126953125e+01
7.386626434326171875e+01
4.812266921997070312e+01
7.773000335693359375e+01
6.553538513183593750e+01
7.612211608886718750e+01
4.075701141357421875e+01
7.337423706054687500e+01
4.957450485229492188e+01
5.390284729003906250e+01
6.795652770996093750e+01
6.725517272949218750e+01
7.650663757324218750e+01
6.774236297607421875e+01
6.044877624511718750e+01
5.929818725585937500e+01
6.224854660034179688e+01
6.250585174560546875e+01
7.564225006103515625e+01
5.956099700927734375e+01
7.602349853515625000e+01
3.973614883422851562e+01
7.494071960449218750e+01
4.344265747070312500e+01
7.124010467529296875e+01
3.932040023803710938e+01
2.911422729492187500e+01
2.887752151489257812e+01
6.632867431640625000e+01
8.129526519775390625e+01
5.689293289184570312e+01
5.263354110717773438e+01
7.289121246337890625e+01
6.435472106933593750e+01
7.600380706787109375e+01
5.724018478393554688e+01
7.693193054199218750e+01
3.207406997680664062e+01
8.239160156250000000e+01
4.050911712646484375e+01
7.187673950195312500e+01
5.144717407226562500e+01
7.421950531005859375e+01
7.404633331298828125e+01
5.692677307128906250e+01
6.761460113525390625e+01
6.821054077148437500e+01
6.530431365966796875e+01
2.223131179809570312e+01
7.256089019775390625e+01
6.871981048583984375e+01
3.126888847351074219e+01
8.001317596435546875e+01
4.393824005126953125e+01
3.496317672729492188e+01
6.283335494995117188e+01
6.229505157470703125e+01
4.161874008178710938e+01
2.528221511840820312e+01
7.498155975341796875e+01
7.834311676025390625e+01
5.235076904296875000e+01
3.042321395874023438e+01
4.736180877685546875e+01
5.173176193237304688e+01
8.046248626708984375e+01
6.700572204589843750e+01
6.412844085693359375e+01
5.900247192382812500e+01
4.795907974243164062e+01
7.516720581054687500e+01
6.626861572265625000e+01
7.395382690429687500e+01
6.931691741943359375e+01
5.996983337402343750e+01
2.893060493469238281e+01
8.076279449462890625e+01
2.869675254821777344e+01
5.883933258056640625e+01
3.049844360351562500e+01
6.357631301879882812e+01
8.165820312500000000e+01
7.540775299072265625e+01
3.069862937927246094e+01
6.011344146728515625e+01
7.488438415527343750e+01
7.037175750732421875e+01
6.514483642578125000e+01
7.906883239746093750e+01
6.184617614746093750e+01
7.967066955566406250e+01
6.373308563232421875e+01
6.121642303466796875e+01
6.790641784667968750e+01
6.673713684082031250e+01
7.638568878173828125e+01
5.011654663085937500e+01
6.774236297607421875e+01
7.116611480712890625e+01
6.034541702270507812e+01
6.213652801513671875e+01
7.405698394775390625e+01
5.163162612915039062e+01
6.059776687622070312e+01
6.185300064086914062e+01
4.764867401123046875e+01
7.854217529296875000e+01
8.408287811279296875e+01
7.407703399658203125e+01
4.780282592773437500e+01
7.978063201904296875e+01
3.369221115112304688e+01
5.160604858398437500e+01
7.124869537353515625e+01
4.210152435302734375e+01
2.714739608764648438e+01
7.201419067382812500e+01
6.744718170166015625e+01
5.786890411376953125e+01
4.950632858276367188e+01
5.021571350097656250e+01
7.224411773681640625e+01
7.279273986816406250e+01
6.547590637207031250e+01
4.842026901245117188e+01
7.502355194091796875e+01
4.053201293945312500e+01
4.260993957519531250e+01
6.411078643798828125e+01
5.484188079833984375e+01
4.272640228271484375e+01
5.372327423095703125e+01
7.656066131591796875e+01
6.419850921630859375e+01
5.866668319702148438e+01
7.556788635253906250e+01
3.852850723266601562e+01
6.040445327758789062e+01
6.492055511474609375e+01
6.382468414306640625e+01
7.495300292968750000e+01
7.192034912109375000e+01
6.857082366943359375e+01
7.103601074218750000e+01
6.420935058593750000e+01
6.683627319335937500e+01
6.832037353515625000e+01
7.070740509033203125e+01
7.500460815429687500e+01
6.381550598144531250e+01
6.951203155517578125e+01
7.734986877441406250e+01
4.788072967529296875e+01
4.311079788208007812e+01
6.081601715087890625e+01
7.224449920654296875e+01
5.256752777099609375e+01
5.870450973510742188e+01
6.710820007324218750e+01
7.749221038818359375e+01
3.020577239990234375e+01
6.484833526611328125e+01
5.310520553588867188e+01
2.403624916076660156e+01
6.795954895019531250e+01
7.607021331787109375e+01
4.650611877441406250e+01
4.665903854370117188e+01
5.649730300903320312e+01
5.163327789306640625e+01
7.482846069335937500e+01
7.683554840087890625e+01
6.576837158203125000e+01
7.687643432617187500e+01
6.818031311035156250e+01
7.080477905273437500e+01
4.800151062011718750e+01
5.360033416748046875e+01
6.935246276855468750e+01
6.772870635986328125e+01
3.903353881835937500e+01
7.188225555419921875e+01
5.343627166748046875e+01
5.571621322631835938e+01
7.598725128173828125e+01
3.434368896484375000e+01
5.471767044067382812e+01
4.274321746826171875e+01
7.721421051025390625e+01
3.126608276367187500e+01
5.432582092285156250e+01
6.496621704101562500e+01
6.166757965087890625e+01
3.160081481933593750e+01
7.589150238037109375e+01
7.728939819335937500e+01
6.458219146728515625e+01
7.880876922607421875e+01
7.087299346923828125e+01
6.002629852294921875e+01
6.789683532714843750e+01
6.240367126464843750e+01
5.421425628662109375e+01
7.441039276123046875e+01
7.380110168457031250e+01
8.256966400146484375e+01
5.845988464355468750e+01
6.159196853637695312e+01
6.808395385742187500e+01
7.313116455078125000e+01
8.560236358642578125e+01
5.926638793945312500e+01
5.813452148437500000e+01
6.227273178100585938e+01
6.947043609619140625e+01
3.142833709716796875e+01
3.900135421752929688e+01
6.751638793945312500e+01
4.333554077148437500e+01
7.272167205810546875e+01
4.093331527709960938e+01
7.104947662353515625e+01
6.873851776123046875e+01
5.919657897949218750e+01
6.748162078857421875e+01
6.188158416748046875e+01
6.940987396240234375e+01
5.722273635864257812e+01
6.655603027343750000e+01
6.918765258789062500e+01
6.160276794433593750e+01
3.062139892578125000e+01
5.712884521484375000e+01
7.015282440185546875e+01
6.808825683593750000e+01
5.562990570068359375e+01
3.577769851684570312e+01
6.629534149169921875e+01
7.758921051025390625e+01
2.624771308898925781e+01
8.175984954833984375e+01
7.062184906005859375e+01
5.418592071533203125e+01
3.263483810424804688e+01
6.359894180297851562e+01
4.409984588623046875e+01
5.637329864501953125e+01
7.233975982666015625e+01
6.835259246826171875e+01
7.123871612548828125e+01
6.876226043701171875e+01
6.590144348144531250e+01
5.723146057128906250e+01
5.789336013793945312e+01
7.527512359619140625e+01
4.571395111083984375e+01
3.526525497436523438e+01
6.750083160400390625e+01
6.606229400634765625e+01
3.624892044067382812e+01
6.315263748168945312e+01
3.001328659057617188e+01
4.642841720581054688e+01
5.735686111450195312e+01
6.838469696044921875e+01
7.694567108154296875e+01
8.309328460693359375e+01
5.266957092285156250e+01
6.005447387695312500e+01
7.509584808349609375e+01
4.991016006469726562e+01
6.543453979492187500e+01
5.262322998046875000e+01
7.176387786865234375e+01
6.920000457763671875e+01
5.623917770385742188e+01
3.141270256042480469e+01
7.805908966064453125e+01
7.354174041748046875e+01
1.837080001831054688e+01
5.126615142822265625e+01
5.639249420166015625e+01
6.368042755126953125e+01
7.367644500732421875e+01
4.385601806640625000e+01
6.486110687255859375e+01
7.113994598388671875e+01
4.086788177490234375e+01
7.053980255126953125e+01
4.106654357910156250e+01
3.761454391479492188e+01
8.372660827636718750e+01
6.297520065307617188e+01
4.945261001586914062e+01
7.044068145751953125e+01
5.288789367675781250e+01
6.028868865966796875e+01
5.612326812744140625e+01
7.334713745117187500e+01
6.320948028564453125e+01
5.366536712646484375e+01
6.379593658447265625e+01
6.579934692382812500e+01
5.710673522949218750e+01
6.450296783447265625e+01
6.697629547119140625e+01
4.376053619384765625e+01
7.845588684082031250e+01
5.676680374145507812e+01
4.360462951660156250e+01
6.695951080322265625e+01
6.270805740356445312e+01
4.357828521728515625e+01
7.032837677001953125e+01
6.094372558593750000e+01
7.434119415283203125e+01
7.212580108642578125e+01
6.035731124877929688e+01
7.409100341796875000e+01
6.760572814941406250e+01
5.770098876953125000e+01
7.503919219970703125e+01
6.979035186767578125e+01
6.231827163696289062e+01
5.629881286621093750e+01
7.083391571044921875e+01
6.541086578369140625e+01
7.312815093994140625e+01
5.042440414428710938e+01
4.751005554199218750e+01
5.974238204956054688e+01
7.359236907958984375e+01
3.717877578735351562e+01
7.344169616699218750e+01
6.076305389404296875e+01
7.087510681152343750e+01
2.846890258789062500e+01
5.174446868896484375e+01
5.401100540161132812e+01
1.704831695556640625e+01
3.096620178222656250e+01
8.131220245361328125e+01
7.363732910156250000e+01
4.641909790039062500e+01
4.234671020507812500e+01
6.924588775634765625e+01
7.123940277099609375e+01
8.146156311035156250e+01
7.362876892089843750e+01
5.652280044555664062e+01
3.949722290039062500e+01
7.914994812011718750e+01
6.957752227783203125e+01
6.594812774658203125e+01
8.212259674072265625e+01
2.660642623901367188e+01
6.211310958862304688e+01
6.434315490722656250e+01
4.767619323730468750e+01
5.820469665527343750e+01
6.724576568603515625e+01
7.753948211669921875e+01
5.940309143066406250e+01
4.473666381835937500e+01
3.312722015380859375e+01
5.439662551879882812e+01
7.719575500488281250e+01
3.374708938598632812e+01
3.493492889404296875e+01
6.362266540527343750e+01
7.225415802001953125e+01
3.263707351684570312e+01
6.214731979370117188e+01
6.084390640258789062e+01
4.807310867309570312e+01
7.257585144042968750e+01
6.073774719238281250e+01
5.454739379882812500e+01
6.421572875976562500e+01
6.109865570068359375e+01
4.274924468994140625e+01
4.515149307250976562e+01
6.329035949707031250e+01
5.844046783447265625e+01
7.734708404541015625e+01
6.811605072021484375e+01
8.104351806640625000e+01
7.206022644042968750e+01
5.038792037963867188e+01
7.203479766845703125e+01
6.905271148681640625e+01
3.270034790039062500e+01
7.441587066650390625e+01
5.776213073730468750e+01
7.855094909667968750e+01
2.057228279113769531e+01
6.856454467773437500e+01
3.657234191894531250e+01
5.602549362182617188e+01
4.313244628906250000e+01
4.729112243652343750e+01
6.284234619140625000e+01
6.452964782714843750e+01
6.899942779541015625e+01
6.933850860595703125e+01
4.874559783935546875e+01
5.694744110107421875e+01
3.403139114379882812e+01
7.134525299072265625e+01
7.499211883544921875e+01
7.443795013427734375e+01
5.515290832519531250e+01
7.792308807373046875e+01
5.382540893554687500e+01
6.040137100219726562e+01
3.771055221557617188e+01
3.153261566162109375e+01
7.101014709472656250e+01
4.682049179077148438e+01
8.140151214599609375e+01
6.135842132568359375e+01
6.210597991943359375e+01
6.621132659912109375e+01
7.569763946533203125e+01
6.327292633056640625e+01
6.413135528564453125e+01
5.745465087890625000e+01
6.549541473388671875e+01
5.001127243041992188e+01
7.908430480957031250e+01
6.727925872802734375e+01
5.296755599975585938e+01
7.639971160888671875e+01
3.289854431152343750e+01
7.368630218505859375e+01
6.139333343505859375e+01
6.837770843505859375e+01
7.340926361083984375e+01
5.725280380249023438e+01
4.218561553955078125e+01
7.455280303955078125e+01
5.212271118164062500e+01
5.275491333007812500e+01
7.270580291748046875e+01
7.543341827392578125e+01
7.398497772216796875e+01
5.508466720581054688e+01
7.650775146484375000e+01
7.288388061523437500e+01
5.963751220703125000e+01
5.732882690429687500e+01
6.332233047485351562e+01
4.567678070068359375e+01
7.214024353027343750e+01
2.235663223266601562e+01
6.789693450927734375e+01
4.845056533813476562e+01
3.414688873291015625e+01
7.871089172363281250e+01
7.027465057373046875e+01
8.632302093505859375e+01
4.926370620727539062e+01
4.268398666381835938e+01
2.691748428344726562e+01
6.931628417968750000e+01
6.319327545166015625e+01
6.246170806884765625e+01
6.430777740478515625e+01
3.365884017944335938e+01
5.725275421142578125e+01
6.818390655517578125e+01
5.552586364746093750e+01
6.743122100830078125e+01
4.908853912353515625e+01
4.441205215454101562e+01
4.548009109497070312e+01
6.179105377197265625e+01
3.175075149536132812e+01
4.424237823486328125e+01
5.482541275024414062e+01
6.973755645751953125e+01
5.882450866699218750e+01
3.392286682128906250e+01
5.464838027954101562e+01
5.033252334594726562e+01
5.401251983642578125e+01
3.385960388183593750e+01
7.473087310791015625e+01
6.648126983642578125e+01
5.982593154907226562e+01
7.027616882324218750e+01
6.815686798095703125e+01
5.847736358642578125e+01
6.616168212890625000e+01
5.437458419799804688e+01
6.170079803466796875e+01
6.965399932861328125e+01
3.927063369750976562e+01
7.327758026123046875e+01
4.590872955322265625e+01
5.477341461181640625e+01
8.022281646728515625e+01
3.276605224609375000e+01
6.364501190185546875e+01
5.112869262695312500e+01
7.026528167724609375e+01
2.205745697021484375e+01
1.564132690429687500e+01
2.073627853393554688e+01
7.730114746093750000e+01
4.822117233276367188e+01
6.064112472534179688e+01
7.236901855468750000e+01
7.214940643310546875e+01
5.330042266845703125e+01
5.837354278564453125e+01
2.993754768371582031e+01
7.165449523925781250e+01
6.722496032714843750e+01
8.689530181884765625e+01
4.971517944335937500e+01
8.435784149169921875e+01
5.237054443359375000e+01
5.919157791137695312e+01
6.939459228515625000e+01
7.916459655761718750e+01
6.185300064086914062e+01
3.620780563354492188e+01
4.477347946166992188e+01
6.465760803222656250e+01
3.455518341064453125e+01
6.338526153564453125e+01
6.845836639404296875e+01
7.633425140380859375e+01
5.877230072021484375e+01
6.030968093872070312e+01
6.336223602294921875e+01
7.795545196533203125e+01
6.716599273681640625e+01
3.061976623535156250e+01
7.624629211425781250e+01
3.119762039184570312e+01
5.446226882934570312e+01
4.626729202270507812e+01
6.657713317871093750e+01
7.120829772949218750e+01
2.520725250244140625e+01
6.386724090576171875e+01
5.961692810058593750e+01
8.357920074462890625e+01
6.620709991455078125e+01
6.677216339111328125e+01
2.728816032409667969e+01
2.536667633056640625e+01
6.945056915283203125e+01
5.865519714355468750e+01
6.301684570312500000e+01
5.040500640869140625e+01
6.965067291259765625e+01
7.045189666748046875e+01
5.874844360351562500e+01
6.575109100341796875e+01
2.562979125976562500e+01
6.677216339111328125e+01
7.260484313964843750e+01
8.374368286132812500e+01
7.085060882568359375e+01
6.680687713623046875e+01
4.558143615722656250e+01
7.075569915771484375e+01
7.600245666503906250e+01
6.765926361083984375e+01
8.376857757568359375e+01
3.480385589599609375e+01
8.287755584716796875e+01
3.260877227783203125e+01
4.581256866455078125e+01
7.238426208496093750e+01
6.223944091796875000e+01
6.960271453857421875e+01
6.476442718505859375e+01
5.266832733154296875e+01
6.489618682861328125e+01
7.698324584960937500e+01
7.041646575927734375e+01
5.916101074218750000e+01
6.109717178344726562e+01
7.934195709228515625e+01
2.758102607727050781e+01
6.450529479980468750e+01
4.147053146362304688e+01
4.179230117797851562e+01
6.426061248779296875e+01
5.026719284057617188e+01
7.492610931396484375e+01
7.335474395751953125e+01
6.646137237548828125e+01
7.622384643554687500e+01
7.768038177490234375e+01
6.592497253417968750e+01
6.228372955322265625e+01
5.514251708984375000e+01
6.284490966796875000e+01
6.044501495361328125e+01
5.620146560668945312e+01
5.310927963256835938e+01
7.118764495849609375e+01
6.496697235107421875e+01
7.186132812500000000e+01
4.898844909667968750e+01
7.762169647216796875e+01
6.796955108642578125e+01
5.762997055053710938e+01
5.442391586303710938e+01
6.157572174072265625e+01
7.755608367919921875e+01
7.739345550537109375e+01
4.988627624511718750e+01
5.812315368652343750e+01
6.729355621337890625e+01
5.945693969726562500e+01
6.640599060058593750e+01
5.281385803222656250e+01
5.704954528808593750e+01
7.105727386474609375e+01
7.484770965576171875e+01
7.215602111816406250e+01
7.361774444580078125e+01
4.395571517944335938e+01
7.618708801269531250e+01
3.671488189697265625e+01
6.061956787109375000e+01
6.129644775390625000e+01
5.514296722412109375e+01
7.356549835205078125e+01
7.102810668945312500e+01
6.323711776733398438e+01
7.984600830078125000e+01
5.310311508178710938e+01
4.905698394775390625e+01
3.455518341064453125e+01
6.063311767578125000e+01
4.352740097045898438e+01
7.148210906982421875e+01
7.057610321044921875e+01
7.663464355468750000e+01
7.658053588867187500e+01
2.398333740234375000e+01
7.241696166992187500e+01
6.832056427001953125e+01
5.867683792114257812e+01
7.205067443847656250e+01
5.698396301269531250e+01
4.305741119384765625e+01
7.422199249267578125e+01
6.280333709716796875e+01
3.242579650878906250e+01
6.249086380004882812e+01
7.033109283447265625e+01
5.856207275390625000e+01
7.184052276611328125e+01
4.545760726928710938e+01
6.731477355957031250e+01
6.218269729614257812e+01
7.364755249023437500e+01
7.385807800292968750e+01
7.698413848876953125e+01
6.733231353759765625e+01
7.451360321044921875e+01
5.622127151489257812e+01
5.132527923583984375e+01
7.222775268554687500e+01
7.005200195312500000e+01
6.939665985107421875e+01
5.968527603149414062e+01
7.175279235839843750e+01
5.233617019653320312e+01
6.937876892089843750e+01
5.367816162109375000e+01
6.178563308715820312e+01
7.529537200927734375e+01
5.834748458862304688e+01
6.859057617187500000e+01
4.708969879150390625e+01
5.667919921875000000e+01
3.876206207275390625e+01
7.146042633056640625e+01
4.636858367919921875e+01
6.275273895263671875e+01
6.532769775390625000e+01
7.159680938720703125e+01
6.626578521728515625e+01
3.127167129516601562e+01
6.348438262939453125e+01
5.391920852661132812e+01
5.275106048583984375e+01
7.071732330322265625e+01
5.709097290039062500e+01
5.723879623413085938e+01
6.641184997558593750e+01
2.820095443725585938e+01
7.464262390136718750e+01
6.908951568603515625e+01
7.505592346191406250e+01
7.203755950927734375e+01
7.400089263916015625e+01
7.856244659423828125e+01
5.088546752929687500e+01
6.740726470947265625e+01
7.423870086669921875e+01
2.961560821533203125e+01
5.824536132812500000e+01
7.118585968017578125e+01
5.595228576660156250e+01
4.560575103759765625e+01
6.469986724853515625e+01
8.013686370849609375e+01
3.724492263793945312e+01
6.707465362548828125e+01
7.663967895507812500e+01
5.661545944213867188e+01
8.119312286376953125e+01
6.149026489257812500e+01
3.142365264892578125e+01
6.484331512451171875e+01
7.864012908935546875e+01
6.142813873291015625e+01
6.711490631103515625e+01
4.148609542846679688e+01
4.649635314941406250e+01
3.821437072753906250e+01
6.223069763183593750e+01
7.074585723876953125e+01
7.630123901367187500e+01
7.321177673339843750e+01
7.629426574707031250e+01
5.490678405761718750e+01
5.532938385009765625e+01
7.717903137207031250e+01
6.923316192626953125e+01
7.131970214843750000e+01
6.005278015136718750e+01
7.277075958251953125e+01
4.933654022216796875e+01
7.028047943115234375e+01
7.273242187500000000e+01
6.499575042724609375e+01
5.959452056884765625e+01
3.670008087158203125e+01
6.469762420654296875e+01
7.543804931640625000e+01
6.731528472900390625e+01
6.122125244140625000e+01
6.727193450927734375e+01
5.746953964233398438e+01
7.762059783935546875e+01
5.711729431152343750e+01
7.337501525878906250e+01
7.847541046142578125e+01
6.873285675048828125e+01
6.088024520874023438e+01
6.720845031738281250e+01
5.781172943115234375e+01
5.694957733154296875e+01
5.966895294189453125e+01
6.577546691894531250e+01
4.953504562377929688e+01
6.408559417724609375e+01
5.445542907714843750e+01
4.694854354858398438e+01
6.423381805419921875e+01
8.142815399169921875e+01
5.788909149169921875e+01
7.504059600830078125e+01
6.974346160888671875e+01
4.852967834472656250e+01
3.169363784790039062e+01
8.103244781494140625e+01
4.134165573120117188e+01
2.795300292968750000e+01
2.753485107421875000e+01
8.090980529785156250e+01
7.037315368652343750e+01
7.035522460937500000e+01
6.053663253784179688e+01
3.683146286010742188e+01
3.882709503173828125e+01
8.100657653808593750e+01
6.607910156250000000e+01
6.716220092773437500e+01
3.578577041625976562e+01
5.688910293579101562e+01
6.472084045410156250e+01
7.363765716552734375e+01
5.345209503173828125e+01
3.275587844848632812e+01
2.113200187683105469e+01
6.153220367431640625e+01
8.432731628417968750e+01
6.641796112060546875e+01
6.539371490478515625e+01
7.060594940185546875e+01
7.223120880126953125e+01
6.813124847412109375e+01
7.194915008544921875e+01
5.890409469604492188e+01
6.408855438232421875e+01
6.186225891113281250e+01
8.725298309326171875e+01
2.560939979553222656e+01
3.666231918334960938e+01
6.255742645263671875e+01
7.582875823974609375e+01
6.442956542968750000e+01
6.649034118652343750e+01
2.854513740539550781e+01
4.952590942382812500e+01
6.503818511962890625e+01
7.542771911621093750e+01
3.588767623901367188e+01
6.763661956787109375e+01
5.522453308105468750e+01
7.403446197509765625e+01
2.210420989990234375e+01
6.273988723754882812e+01
6.744870758056640625e+01
6.969459533691406250e+01
6.642204284667968750e+01
5.230939483642578125e+01
7.476187133789062500e+01
6.303389358520507812e+01
7.682280731201171875e+01
5.844595718383789062e+01
8.954515075683593750e+01
5.934367370605468750e+01
5.627011489868164062e+01
6.287240600585937500e+01
5.080178833007812500e+01
7.247353363037109375e+01
2.094070434570312500e+01
4.728706741333007812e+01
4.779607772827148438e+01
7.542440795898437500e+01
7.569500732421875000e+01
6.753359985351562500e+01
6.749390411376953125e+01
7.455199432373046875e+01
4.164894485473632812e+01
4.035174179077148438e+01
5.225727844238281250e+01
7.320042419433593750e+01
6.699971771240234375e+01
5.449243927001953125e+01
6.299822235107421875e+01
4.233966445922851562e+01
5.226882171630859375e+01
5.511231231689453125e+01
3.194577407836914062e+01
7.667980957031250000e+01
7.187772369384765625e+01
7.400043487548828125e+01
7.850875091552734375e+01
6.439460754394531250e+01
5.967073440551757812e+01
6.301908111572265625e+01
6.335364151000976562e+01
5.939569854736328125e+01
5.291296386718750000e+01
3.148135757446289062e+01
2.765708160400390625e+01
2.965614700317382812e+01
7.929944610595703125e+01
5.863413619995117188e+01
8.217026519775390625e+01
6.533543395996093750e+01
7.848387908935546875e+01
5.900624847412109375e+01
6.549990844726562500e+01
6.517520141601562500e+01
7.315312194824218750e+01
5.872047805786132812e+01
5.961901855468750000e+01
5.302923583984375000e+01
7.806174468994140625e+01
5.933836746215820312e+01
6.537064361572265625e+01
4.986425018310546875e+01
6.234727859497070312e+01
5.661094665527343750e+01
4.740715789794921875e+01
6.911878204345703125e+01
6.372517395019531250e+01
6.972716522216796875e+01
5.039501190185546875e+01
5.690438079833984375e+01
6.024467849731445312e+01
5.707849502563476562e+01
6.089150238037109375e+01
7.382231140136718750e+01
3.245512771606445312e+01
5.954513549804687500e+01
5.225360488891601562e+01
4.152922821044921875e+01
5.634292602539062500e+01
7.240773010253906250e+01
7.454996490478515625e+01
6.738855743408203125e+01
7.564483642578125000e+01
5.010415649414062500e+01
7.026381683349609375e+01
5.527231597900390625e+01
7.301662445068359375e+01
4.757011795043945312e+01
6.930908203125000000e+01
7.023051452636718750e+01
6.142350006103515625e+01
7.166666412353515625e+01
7.095506286621093750e+01
5.641357421875000000e+01
6.222519302368164062e+01
6.628604888916015625e+01
5.978944015502929688e+01
7.190126800537109375e+01
3.006230735778808594e+01
6.808752441406250000e+01
6.565266418457031250e+01
3.070456695556640625e+01
6.901217651367187500e+01
6.775365447998046875e+01
6.833541107177734375e+01
4.380065917968750000e+01
3.124006652832031250e+01
6.430078887939453125e+01
7.093323516845703125e+01
4.628121185302734375e+01
5.859842300415039062e+01
8.368079376220703125e+01
7.617104339599609375e+01
5.063732147216796875e+01
7.631214904785156250e+01
7.415904998779296875e+01
8.503639984130859375e+01
6.908666229248046875e+01
2.916786384582519531e+01
8.038140106201171875e+01
8.334841918945312500e+01
6.717610168457031250e+01
5.773694229125976562e+01
6.436286926269531250e+01
6.464116668701171875e+01
6.541532135009765625e+01
6.378385162353515625e+01
6.447277069091796875e+01
3.833300781250000000e+01
8.724982452392578125e+01
4.709872436523437500e+01
6.307674407958984375e+01
5.713433837890625000e+01
8.703726196289062500e+01
6.973047637939453125e+01
4.283165359497070312e+01
6.737643432617187500e+01
6.357765960693359375e+01
4.273649597167968750e+01
6.480266571044921875e+01
6.814672851562500000e+01
7.108250427246093750e+01
3.793973922729492188e+01
6.181513595581054688e+01
8.419895172119140625e+01
7.557814788818359375e+01
6.908207702636718750e+01
6.992288208007812500e+01
4.318949890136718750e+01
4.411243438720703125e+01
5.787939453125000000e+01
4.771049499511718750e+01
6.977729034423828125e+01
5.671614074707031250e+01
4.837730407714843750e+01
7.955122375488281250e+01
2.754967880249023438e+01
6.538195037841796875e+01
7.071739196777343750e+01
6.193245697021484375e+01
5.200483703613281250e+01
6.045704269409179688e+01
7.007563018798828125e+01
5.540201568603515625e+01
6.640201568603515625e+01
5.915396499633789062e+01
4.502109146118164062e+01
3.886280822753906250e+01
6.835310363769531250e+01
7.826320648193359375e+01
8.637191009521484375e+01
6.086778640747070312e+01
6.783909606933593750e+01
7.813674163818359375e+01
6.296598052978515625e+01
6.459539794921875000e+01
6.100240325927734375e+01
8.123102569580078125e+01
4.874412536621093750e+01
3.378283691406250000e+01
6.805181884765625000e+01
8.547058868408203125e+01
4.127774810791015625e+01
7.887915802001953125e+01
3.852364349365234375e+01
6.765288543701171875e+01
8.163934326171875000e+01
6.571739959716796875e+01
6.827319335937500000e+01
7.409037017822265625e+01
8.015505981445312500e+01
5.604875946044921875e+01
6.966978454589843750e+01
6.748814392089843750e+01
5.385750198364257812e+01
5.802422714233398438e+01
6.429712677001953125e+01
5.588706207275390625e+01
5.863644790649414062e+01
8.125099945068359375e+01
6.802595520019531250e+01
6.535437774658203125e+01
7.436058807373046875e+01
2.562275123596191406e+01
7.704080963134765625e+01
5.157835006713867188e+01
8.211663055419921875e+01
7.243978118896484375e+01
8.004309844970703125e+01
4.326365661621093750e+01
2.312151336669921875e+01
3.655700683593750000e+01
6.955223846435546875e+01
5.999906921386718750e+01
7.872620391845703125e+01
6.101765441894531250e+01
4.937933349609375000e+01
3.893770217895507812e+01
7.514548492431640625e+01
6.702909088134765625e+01
7.535247039794921875e+01
5.504910278320312500e+01
5.613768386840820312e+01
4.290094757080078125e+01
3.699322509765625000e+01
5.207263946533203125e+01
7.895616912841796875e+01
6.090808105468750000e+01
5.994670104980468750e+01
2.941627883911132812e+01
8.224298858642578125e+01
6.813249206542968750e+01
7.555242919921875000e+01
7.370394134521484375e+01
7.011108398437500000e+01
8.029157257080078125e+01
7.006764984130859375e+01
4.335943222045898438e+01
5.615363311767578125e+01
7.549733734130859375e+01
5.635086059570312500e+01
6.509894561767578125e+01
6.953227996826171875e+01
6.931628417968750000e+01
8.066317749023437500e+01
5.311278152465820312e+01
7.846726989746093750e+01
4.331196594238281250e+01
6.513224792480468750e+01
7.169363403320312500e+01
5.504177856445312500e+01
7.774035644531250000e+01
3.738645172119140625e+01
2.566571807861328125e+01
6.768191528320312500e+01
3.983812332153320312e+01
6.966408538818359375e+01
6.241751861572265625e+01
7.655058288574218750e+01
3.779663085937500000e+01
3.958531951904296875e+01
3.864900970458984375e+01
6.217500305175781250e+01
2.683446693420410156e+01
7.861264801025390625e+01
6.189093017578125000e+01
6.884551239013671875e+01
6.674546813964843750e+01
6.856935119628906250e+01
6.942830657958984375e+01
6.535369873046875000e+01
7.312255096435546875e+01
3.326861572265625000e+01
4.084874725341796875e+01
6.444952392578125000e+01
7.599704742431640625e+01
2.905421829223632812e+01
4.063259124755859375e+01
2.655990982055664062e+01
6.706217956542968750e+01
4.446856689453125000e+01
4.515739440917968750e+01
3.762061691284179688e+01
6.339562225341796875e+01
3.263250732421875000e+01
5.352317047119140625e+01
4.386738204956054688e+01
5.371141815185546875e+01
5.943922424316406250e+01
6.953815460205078125e+01
4.427208709716796875e+01
6.533800506591796875e+01
4.609852600097656250e+01
6.904939270019531250e+01
7.195758056640625000e+01
5.876094055175781250e+01
6.752761077880859375e+01
6.684877777099609375e+01
7.266369628906250000e+01
4.728819656372070312e+01
6.751850128173828125e+01
4.400527191162109375e+01
4.916066741943359375e+01
6.875250244140625000e+01
8.032894897460937500e+01
6.202256011962890625e+01
5.332779312133789062e+01
4.521673965454101562e+01
6.809214782714843750e+01
4.899843597412109375e+01
7.135147857666015625e+01
7.003258514404296875e+01
6.190496444702148438e+01
2.839357376098632812e+01
3.977082824707031250e+01
6.682167816162109375e+01
4.738795089721679688e+01
6.944703674316406250e+01
7.573123168945312500e+01
6.819142913818359375e+01
7.732878112792968750e+01
7.199019622802734375e+01
7.402109527587890625e+01
3.123057937622070312e+01
5.022215270996093750e+01
5.287591552734375000e+01
4.976222229003906250e+01
7.862663269042968750e+01
7.020745086669921875e+01
4.309638595581054688e+01
5.709315490722656250e+01
7.110158538818359375e+01
3.566479492187500000e+01
7.153062438964843750e+01
3.999512481689453125e+01
7.214497375488281250e+01
5.430322265625000000e+01
4.365268707275390625e+01
6.454948425292968750e+01
6.854586029052734375e+01
6.075710678100585938e+01
7.004930114746093750e+01
6.314422607421875000e+01
4.050183868408203125e+01
6.888134002685546875e+01
5.863688278198242188e+01
6.068788528442382812e+01
7.234798431396484375e+01
3.751298522949218750e+01
2.435528373718261719e+01
6.520388031005859375e+01
4.553044891357421875e+01
5.160316848754882812e+01
7.932968902587890625e+01
4.075487518310546875e+01
7.732965850830078125e+01
5.325547027587890625e+01
4.708969879150390625e+01
7.633753204345703125e+01
4.602795028686523438e+01
7.055035400390625000e+01
5.934687805175781250e+01
6.603453063964843750e+01
7.360641479492187500e+01
6.821100616455078125e+01
7.197704315185546875e+01
1.947976875305175781e+01
7.132555389404296875e+01
5.111183166503906250e+01
6.958582305908203125e+01
4.812327575683593750e+01
4.953734588623046875e+01
2.755239868164062500e+01
7.662664031982421875e+01
6.219865798950195312e+01
7.409540557861328125e+01
7.519089508056640625e+01
7.317302703857421875e+01
7.703869628906250000e+01
7.208549499511718750e+01
6.824816131591796875e+01
7.646080780029296875e+01
6.560009002685546875e+01
6.215287780761718750e+01
4.774108123779296875e+01
3.612520980834960938e+01
7.422485351562500000e+01
6.077349853515625000e+01
5.356875610351562500e+01
5.891921234130859375e+01
4.821716690063476562e+01
6.120019912719726562e+01
7.984058380126953125e+01
5.762948608398437500e+01
6.003559875488281250e+01
6.134468460083007812e+01
3.590545272827148438e+01
6.442178344726562500e+01
6.989210510253906250e+01
4.586081695556640625e+01
7.786954498291015625e+01
5.615351867675781250e+01
5.795627975463867188e+01
7.085248565673828125e+01
4.780966949462890625e+01
7.225906372070312500e+01
7.016089630126953125e+01
6.476796722412109375e+01
2.773326301574707031e+01
6.556381988525390625e+01
7.118811798095703125e+01
2.836190414428710938e+01
7.888834381103515625e+01
6.575351715087890625e+01
7.023625183105468750e+01
6.996192169189453125e+01
2.803573799133300781e+01
5.845970153808593750e+01
8.018636322021484375e+01
6.764183807373046875e+01
6.434315490722656250e+01
5.195594024658203125e+01
5.783730316162109375e+01
5.050751495361328125e+01
6.679959106445312500e+01
5.801744079589843750e+01
6.028038406372070312e+01
7.448157501220703125e+01
7.722509002685546875e+01
7.238978576660156250e+01
6.849631500244140625e+01
5.495094299316406250e+01
5.171313095092773438e+01
7.964345550537109375e+01
6.795890808105468750e+01
6.163018798828125000e+01
6.698058319091796875e+01
6.311449432373046875e+01
5.172885894775390625e+01
7.097633361816406250e+01
7.011053466796875000e+01
8.336985778808593750e+01
7.450835418701171875e+01
7.047788238525390625e+01
6.692610931396484375e+01
7.031606292724609375e+01
3.665215301513671875e+01
6.120019912719726562e+01
7.105231475830078125e+01
6.911600494384765625e+01
3.429706573486328125e+01
7.160929107666015625e+01
6.395195770263671875e+01
8.421321868896484375e+01
5.872615814208984375e+01
7.247229766845703125e+01
4.675526428222656250e+01
4.480650711059570312e+01
3.190232467651367188e+01
5.011668395996093750e+01
5.358777236938476562e+01
3.459760665893554688e+01
5.223797225952148438e+01
6.710081481933593750e+01
7.362879180908203125e+01
6.219431304931640625e+01
2.323461151123046875e+01
8.322658538818359375e+01
5.924929046630859375e+01
7.723293304443359375e+01
4.259027481079101562e+01
5.254140472412109375e+01
5.986799240112304688e+01
8.190744018554687500e+01
2.529465866088867188e+01
7.754301452636718750e+01
4.922873306274414062e+01
7.395530700683593750e+01
6.137178802490234375e+01
7.810169219970703125e+01
6.357618713378906250e+01
6.982515716552734375e+01
5.926233673095703125e+01
8.020914459228515625e+01
7.460886383056640625e+01
5.746116638183593750e+01
2.711222457885742188e+01
2.867226409912109375e+01
7.674446868896484375e+01
6.557102203369140625e+01
7.375940704345703125e+01
3.196902084350585938e+01
6.393780517578125000e+01
3.695441055297851562e+01
6.879698944091796875e+01
4.176285934448242188e+01
5.053615570068359375e+01
6.246132278442382812e+01
3.429000091552734375e+01
6.134512329101562500e+01
3.258230972290039062e+01
6.201615905761718750e+01
7.451584625244140625e+01
7.746325683593750000e+01
2.614011764526367188e+01
6.781374359130859375e+01
7.615784454345703125e+01
7.209024047851562500e+01
5.859543991088867188e+01
5.679924774169921875e+01
6.516689300537109375e+01
6.787468719482421875e+01
5.329008865356445312e+01
6.582772064208984375e+01
4.682244110107421875e+01
6.721685028076171875e+01
3.067071533203125000e+01
6.826883697509765625e+01
3.885264968872070312e+01
5.679433059692382812e+01
8.350062561035156250e+01
7.053086090087890625e+01
4.160099792480468750e+01
7.658564758300781250e+01
7.498542022705078125e+01
5.508528518676757812e+01
3.455294036865234375e+01
4.180110168457031250e+01
3.652207183837890625e+01
6.475511169433593750e+01
3.988388824462890625e+01
5.179816818237304688e+01
7.249424743652343750e+01
6.723173522949218750e+01
3.866925811767578125e+01
2.722079849243164062e+01
6.339434814453125000e+01
4.763203811645507812e+01
6.483273315429687500e+01
7.593124389648437500e+01
7.015000152587890625e+01
5.525273132324218750e+01
4.608299255371093750e+01
6.173131179809570312e+01
7.220969390869140625e+01
5.240992736816406250e+01
7.144481658935546875e+01
6.479404449462890625e+01
6.527436065673828125e+01
5.452194213867187500e+01
4.575202560424804688e+01
6.780149078369140625e+01
5.063037109375000000e+01
7.072634124755859375e+01
5.404538345336914062e+01
5.989762878417968750e+01
7.713704681396484375e+01
4.324637603759765625e+01
6.912792205810546875e+01
3.354720687866210938e+01
6.734879302978515625e+01
6.142630386352539062e+01
6.294038009643554688e+01
6.012711715698242188e+01
5.815313720703125000e+01
4.002935409545898438e+01
5.652874374389648438e+01
4.467062759399414062e+01
5.871107482910156250e+01
5.041753387451171875e+01
5.588525772094726562e+01
7.769925689697265625e+01
4.293710327148437500e+01
7.354259490966796875e+01
7.481560516357421875e+01
4.131872558593750000e+01
6.358012771606445312e+01
6.450323486328125000e+01
7.454293823242187500e+01
6.549321746826171875e+01
6.632489013671875000e+01
4.717178726196289062e+01
7.570508575439453125e+01
7.729529571533203125e+01
7.573524475097656250e+01
5.326758193969726562e+01
5.079943084716796875e+01
6.691880035400390625e+01
3.161103439331054688e+01
7.518247985839843750e+01
5.780075073242187500e+01
6.250278472900390625e+01
5.585673522949218750e+01
6.374015808105468750e+01
6.637927246093750000e+01
4.030651092529296875e+01
6.915447235107421875e+01
6.452937316894531250e+01
4.592427825927734375e+01
7.510725402832031250e+01
5.223287963867187500e+01
2.962779617309570312e+01
6.933800506591796875e+01
4.078559875488281250e+01
7.749498748779296875e+01
6.754026794433593750e+01
7.444497680664062500e+01
2.710739898681640625e+01
4.655355072021484375e+01
7.809317016601562500e+01
6.185362243652343750e+01
6.984123992919921875e+01
6.080315017700195312e+01
5.567260742187500000e+01
7.032877349853515625e+01
6.799028015136718750e+01
6.844206237792968750e+01
7.391483306884765625e+01
7.132175445556640625e+01
7.880440521240234375e+01
5.168181610107421875e+01
7.855423736572265625e+01
5.481769180297851562e+01
6.159211730957031250e+01
6.567225646972656250e+01
4.785681152343750000e+01
7.334212493896484375e+01
3.295060729980468750e+01
7.470618438720703125e+01
7.275198364257812500e+01
6.062730789184570312e+01
7.639971160888671875e+01
5.868007659912109375e+01
5.673043823242187500e+01
5.151593017578125000e+01
7.522325897216796875e+01
8.117477416992187500e+01
7.395104217529296875e+01
5.961336135864257812e+01
7.488547515869140625e+01
5.929519271850585938e+01
7.216786956787109375e+01
5.531322097778320312e+01
7.673163604736328125e+01
7.366791534423828125e+01
7.731514739990234375e+01
6.394754791259765625e+01
6.625745391845703125e+01
6.404954528808593750e+01
5.967336273193359375e+01
